,air temperature [K],Soil temperature at - 0.00 m [K],Wind speed at 10 m (m/s),precipitation rain [m s^-1],Relative humidity at 5 m (%),Incoming shortwave radiation (W/m^2),precipitation snow [m SWE s^-1]_sd0.1,precipitation snow [m SWE s^-1]_sd0.2,precipitation snow [m SWE s^-1]_sd0.45,precipitation snow [m SWE s^-1]_sd0.04,precipitation snow [m SWE s^-1]_sd0.01
0,261.50668055555553,260.3422222222222,5.703645833333334,0.0,0.26417291666666665,140.57291666666666,5.796296296296296e-08,1.1592592592592592e-07,2.608333333333333e-07,2.3185185185185184e-08,5.796296296296296e-09
1,261.0545208333333,259.88555902777773,5.112836805555556,0.0,0.2601027777777778,138.7412847222222,2.9102044560185186e-08,5.820408912037037e-08,1.3095920052083332e-07,1.1640817824074074e-08,2.9102044560185185e-09
2,260.9614398148148,259.8024606481481,5.2659212962962965,0.0,0.3181627314814815,128.54163657407406,1.9449588348765432e-08,3.8899176697530864e-08,8.752314756944443e-08,7.779835339506172e-09,1.944958834876543e-09
3,261.30360937499995,259.99811284722216,5.4586909722222225,0.0,0.3147123263888889,133.389625,1.4719810763888889e-08,2.9439621527777778e-08,6.623914843749999e-08,5.887924305555555e-09,1.4719810763888888e-09
4,261.6424708333333,260.1514680555555,5.562626388888889,0.0,0.2961298611111111,136.14899166666663,1.1833718981481481e-08,2.3667437962962962e-08,5.325173541666666e-08,4.733487592592593e-09,1.1833718981481482e-09
5,261.70374999999996,260.02476736111106,5.190056712962963,0.0,0.29496076388888887,138.72995833333331,1.001816473765432e-08,2.003632947530864e-08,4.508174131944444e-08,4.007265895061728e-09,1.001816473765432e-09
6,261.4066865079365,259.9184057539682,5.17238492063492,0.0,0.3189248015873016,137.02402182539683,8.67655968915344e-09,1.735311937830688e-08,3.904451860119047e-08,3.4706238756613753e-09,8.676559689153438e-10
7,261.04804365079366,259.61462400793647,5.026818452380953,0.0,0.355671626984127,138.1674642857143,5.098103505291005e-10,1.019620701058201e-09,2.2941465773809523e-09,2.0392414021164023e-10,5.0981035052910056e-11
8,260.4117341269841,259.2349077380952,4.837381944444444,0.0,0.4193421626984128,138.33883630952383,5.890376984126984e-10,1.1780753968253967e-09,2.6506696428571426e-09,2.3561507936507934e-10,5.890376984126983e-11
9,259.5431726190476,258.79547123015874,4.4065079365079365,1.6534391534391534e-10,0.47346547619047624,134.55485416666667,2.04985119047619e-09,4.09970238095238e-09,9.224330357142857e-09,8.199404761904762e-10,2.0498511904761904e-10
10,258.1709136904762,257.6792013888889,3.865141865079365,1.6534391534391534e-10,0.5404067460317461,129.73329464285715,4.536899305555556e-09,9.073798611111111e-09,2.0416046875000004e-08,1.814759722222222e-09,4.536899305555555e-10
11,256.92666765873014,256.4395248015873,3.4519831349206345,1.6534391534391534e-10,0.5793308531746033,131.23417063492064,7.236965443121693e-09,1.4473930886243386e-08,3.256634449404762e-08,2.8947861772486774e-09,7.236965443121693e-10
12,256.0696329365079,255.73377876984128,3.5417261904761905,1.6534391534391534e-10,0.616343253968254,130.09891666666667,1.011353621031746e-08,2.022707242063492e-08,4.551091294642857e-08,4.045414484126984e-09,1.011353621031746e-09
13,255.7353373015873,255.18828869047616,3.5336527777777778,1.6534391534391534e-10,0.6081201388888889,131.2495218253968,1.2914186507936507e-08,2.5828373015873015e-08,5.811383928571429e-08,5.165674603174603e-09,1.2914186507936507e-09
14,255.52456349206346,254.74478869047616,3.7905595238095238,1.6534391534391534e-10,0.5834689484126984,128.4093630952381,1.4577959656084656e-08,2.915591931216931e-08,6.560081845238096e-08,5.831183862433862e-09,1.4577959656084656e-09
15,255.59781746031746,254.43965277777778,4.421148809523809,1.6534391534391534e-10,0.5099190476190476,132.70935218253967,1.4804894179894178e-08,2.9609788359788355e-08,6.66220238095238e-08,5.921957671957672e-09,1.480489417989418e-09
16,255.7068353174603,254.08057936507933,4.660395833333333,0.0,0.4312920634920635,139.92335416666668,1.367063492063492e-08,2.734126984126984e-08,6.151785714285714e-08,5.468253968253968e-09,1.367063492063492e-09
17,256.2964087301587,254.53201785714285,5.699244047619048,0.0,0.3454648809523809,148.04323511904764,1.1107804232804234e-08,2.2215608465608468e-08,4.998511904761904e-08,4.4431216931216925e-09,1.1107804232804231e-09
18,256.6113591269841,254.80353075396823,5.74675496031746,0.0,0.2963741071428571,142.81512003968254,8.464258763227514e-09,1.6928517526455028e-08,3.808916443452381e-08,3.3857035052910052e-09,8.464258763227513e-10
19,256.8172023809524,254.95342063492063,5.678752976190476,0.0,0.25161537698412695,138.55383035714286,5.525684027777777e-09,1.1051368055555553e-08,2.4865578124999997e-08,2.2102736111111114e-09,5.525684027777779e-10
20,256.9036011904762,255.1852956349206,6.032001984126984,0.0,0.22340198412698412,139.51848015873017,2.7078103505291e-09,5.4156207010582e-09,1.2185146577380951e-08,1.0831241402116403e-09,2.7078103505291007e-10
21,257.1803968253968,255.67247023809523,5.768514880952382,0.0,0.1910891865079365,146.28072222222224,1.0302585978835975e-09,2.060517195767195e-09,4.63616369047619e-09,4.1210343915343914e-10,1.0302585978835978e-10
22,257.9028759920635,256.20865277777773,5.069782738095237,0.0,0.1841219246031746,142.78342857142857,8.616078042328037e-10,1.7232156084656073e-09,3.877235119047619e-09,3.4464312169312167e-10,8.616078042328042e-11
23,258.96163194444443,257.13755357142855,4.9997807539682535,0.0,0.17809221230158728,149.36675496031745,6.108361441798937e-10,1.2216722883597873e-09,2.7487626488095237e-09,2.443344576719577e-10,6.108361441798942e-11
24,260.15635515873015,258.2467728174603,4.670920634920635,0.0,0.1801988591269841,146.55794146825397,7.348440806878301e-10,1.4696881613756603e-09,3.3067983630952382e-09,2.939376322751323e-10,7.348440806878308e-11
25,261.1257867063492,259.44935515873016,4.743121031746033,0.0,0.20787743055555552,148.81958035714288,7.782187499999995e-10,1.556437499999999e-09,3.5019843749999997e-09,3.112875e-10,7.7821875e-11
26,262.36994047619044,260.8402698412698,5.287909722222222,0.0,0.2208878472222222,155.71119841269842,8.229993386243382e-10,1.6459986772486763e-09,3.7034970238095235e-09,3.2919973544973543e-10,8.229993386243386e-11
27,262.8880496031746,261.5154117063492,5.078617063492063,0.0,0.2621590773809524,153.54503373015874,1.116071428571428e-09,2.232142857142856e-09,5.022321428571428e-09,4.464285714285715e-10,1.1160714285714287e-10
28,262.99433928571426,261.51840575396824,5.216575396825397,0.0,0.3092532242063492,154.9949474206349,3.8898533399470896e-09,7.779706679894179e-09,1.75043400297619e-08,1.555941335978836e-09,3.88985333994709e-10
29,263.01620535714284,261.5859841269841,5.6758105158730165,0.0,0.3492798115079365,155.06087996031746,6.022789847883598e-09,1.2045579695767195e-08,2.7102554315476185e-08,2.409115939153439e-09,6.022789847883598e-10
30,262.8399345238095,261.37511210317456,6.1396875,0.0,0.3691024801587301,154.52077083333333,6.75636574074074e-09,1.351273148148148e-08,3.040364583333333e-08,2.7025462962962963e-09,6.756365740740741e-10
31,262.34913293650794,260.7858164682539,5.855078373015873,0.0,0.38574384920634924,159.27718253968257,7.351603835978836e-09,1.4703207671957672e-08,3.3082217261904756e-08,2.9406415343915344e-09,7.351603835978836e-10
32,262.3451736111111,260.7139742063492,6.097027777777778,0.0,0.3725518849206349,161.0389533730159,7.731205853174604e-09,1.5462411706349207e-08,3.479042633928572e-08,3.0924823412698415e-09,7.731205853174604e-10
33,261.99455456349204,260.45154464285713,5.899132936507937,0.0,0.35213452380952376,163.10606150793652,7.979497354497353e-09,1.5958994708994707e-08,3.59077380952381e-08,3.1917989417989416e-09,7.979497354497354e-10
34,262.86396726190475,261.10155654761905,5.8908273809523815,0.0,0.3071719246031746,167.64525892857142,7.989417989417988e-09,1.5978835978835976e-08,3.595238095238095e-08,3.195767195767195e-09,7.989417989417988e-10
35,264.24630456349206,262.4488204365079,5.781453373015872,0.0,0.26607152777777776,153.91477976190478,5.739087301587301e-09,1.1478174603174601e-08,2.5825892857142856e-08,2.2956349206349205e-09,5.739087301587301e-10
36,264.9390059523809,263.4183601190476,5.53640376984127,0.0,0.2524794642857143,142.79287797619048,4.165013227513227e-09,8.330026455026454e-09,1.8742559523809522e-08,1.666005291005291e-09,4.1650132275132276e-10
37,264.0561240079365,263.1139186507936,5.351833333333333,0.0,0.31838789682539687,130.18771924603175,3.8376322751322745e-09,7.675264550264549e-09,1.7269345238095236e-08,1.5350529100529101e-09,3.8376322751322753e-10
38,263.338244047619,262.62391567460315,4.957276785714285,0.0,0.3939503968253968,119.96566964285715,3.831018518518518e-09,7.662037037037036e-09,1.7239583333333333e-08,1.5324074074074072e-09,3.831018518518518e-10
39,262.5886448412698,261.7288234126984,4.59182242063492,1.6534391534391534e-10,0.4478185515873016,124.09896031746032,4.781746031746031e-09,9.563492063492062e-09,2.151785714285714e-08,1.912698412698413e-09,4.781746031746032e-10
40,261.64335416666665,260.53065674603175,4.099084325396825,1.6534391534391534e-10,0.5243544642857143,113.07784920634921,6.165674603174603e-09,1.2331349206349205e-08,2.774553571428571e-08,2.4662698412698415e-09,6.165674603174604e-10
41,260.4722013888889,258.97491865079365,3.7711498015873017,1.6534391534391534e-10,0.5612839285714286,119.61557341269841,7.2238756613756615e-09,1.4447751322751323e-08,3.250744047619048e-08,2.8895502645502644e-09,7.223875661375661e-10
42,259.3713700396825,257.39201289682535,3.6412261904761904,1.6534391534391534e-10,0.5798351190476191,136.5714662698413,8.12665343915344e-09,1.625330687830688e-08,3.656994047619048e-08,3.250661375661376e-09,8.12665343915344e-10
43,258.8522003968254,256.47700496031746,3.6756378968253967,1.6534391534391534e-10,0.574130257936508,148.3611746031746,8.283730158730158e-09,1.6567460317460315e-08,3.727678571428571e-08,3.3134920634920637e-09,8.283730158730159e-10
44,259.89825198412694,256.7593134920635,3.49365376984127,1.6534391534391534e-10,0.4970646825396825,160.6141111111111,8.339947089947089e-09,1.6679894179894178e-08,3.752976190476191e-08,3.3359788359788365e-09,8.339947089947091e-10
45,261.053498015873,257.7100307539682,4.308347222222222,1.6534391534391534e-10,0.4109262896825397,169.51762103174605,7.76854613095238e-09,1.553709226190476e-08,3.495845758928571e-08,3.1074184523809525e-09,7.768546130952381e-10
46,261.9653501984127,258.8505942460317,4.812099206349207,0.0,0.3715565476190476,160.5349533730159,6.5995646494709e-09,1.31991292989418e-08,2.9698040922619046e-08,2.6398258597883598e-09,6.599564649470899e-10
47,263.0818591269841,260.1670248015873,5.288029761904761,0.0,0.31791011904761907,174.9671001984127,5.053599041005291e-09,1.0107198082010581e-08,2.2741195684523808e-08,2.0214396164021167e-09,5.053599041005292e-10
48,264.29624503968256,261.7898154761905,5.801149801587301,0.0,0.28308698412698413,178.37593452380952,4.058228670634921e-09,8.116457341269842e-09,1.826202901785714e-08,1.6232914682539684e-09,4.058228670634921e-10
49,265.33581646825394,263.4810466269841,5.904127976190476,0.0,0.26778708333333334,173.37307738095242,3.066165178571428e-09,6.132330357142856e-09,1.3797743303571425e-08,1.2264660714285714e-09,3.0661651785714285e-10
50,265.8163521825397,264.7283224206349,5.880030753968254,0.0,0.2811815277777778,169.98713789682537,2.409749834656084e-09,4.819499669312168e-09,1.0843874255952377e-08,9.638999338624339e-10,2.4097498346560847e-10
51,264.97204662698414,265.4560089285714,5.973306547619048,0.0,0.35993261904761903,168.40553373015874,2.216297453703703e-09,4.432594907407406e-09,9.973338541666664e-09,8.865189814814815e-10,2.2162974537037037e-10
52,263.74542162698407,265.4560952380952,5.312780753968255,1.6534391534391534e-10,0.4454718055555556,168.07214384920636,3.4672619047619043e-09,6.934523809523809e-09,1.560267857142857e-08,1.3869047619047618e-09,3.4672619047619044e-10
53,262.7415059523809,265.19809325396824,4.816710317460318,3.306878306878307e-10,0.5141502777777778,174.51951884920635,5.593584656084655e-09,1.118716931216931e-08,2.5171130952380952e-08,2.2374338624338628e-09,5.593584656084657e-10
54,261.7066726190476,264.9123373015873,4.412799603174603,4.96031746031746e-10,0.5811049404761904,163.67655158730162,1.0219907407407406e-08,2.043981481481481e-08,4.598958333333333e-08,4.087962962962963e-09,1.0219907407407407e-09
55,260.0336656746031,264.1930476190476,4.080972222222223,4.96031746031746e-10,0.6332220238095239,164.26408333333333,1.506283068783069e-08,3.012566137566138e-08,6.77827380952381e-08,6.025132275132275e-09,1.5062830687830688e-09
56,258.32378869047614,262.94994841269835,3.851150793650794,4.96031746031746e-10,0.6594935515873016,175.07217063492064,1.947585978835979e-08,3.895171957671958e-08,8.764136904761904e-08,7.790343915343915e-09,1.947585978835979e-09
57,257.2457827380952,261.78200892857143,3.801566468253968,4.96031746031746e-10,0.6663041666666666,187.24906349206347,2.404265873015873e-08,4.808531746031746e-08,1.0819196428571428e-07,9.617063492063491e-09,2.404265873015873e-09
58,257.17066369047615,261.3911507936508,3.865530753968254,6.613756613756614e-10,0.6652545634920636,191.39192757936507,2.822420634920635e-08,5.64484126984127e-08,1.2700892857142857e-07,1.1289682539682541e-08,2.8224206349206352e-09
59,257.38795535714286,260.9113492063492,3.976063492063492,4.96031746031746e-10,0.6034385912698413,203.04182837301587,3.1006944444444444e-08,6.201388888888889e-08,1.3953125e-07,1.2402777777777779e-08,3.1006944444444446e-09
60,257.89128769841267,260.69379960317457,4.286480158730159,3.306878306878307e-10,0.5334061507936508,216.71845337301585,3.1850198412698415e-08,6.370039682539683e-08,1.4332589285714284e-07,1.2740079365079365e-08,3.1850198412698413e-09
61,258.41127876984126,260.3254464285714,4.390864087301587,1.6534391534391534e-10,0.46718253968253964,233.7641646825397,2.9487433862433863e-08,5.8974867724867726e-08,1.3269345238095236e-07,1.1794973544973546e-08,2.9487433862433864e-09
62,258.85142757936507,260.0824900793651,4.320280753968254,1.6534391534391534e-10,0.4670925595238095,228.40663293650792,2.7051917989417988e-08,5.4103835978835975e-08,1.2173363095238095e-07,1.0820767195767196e-08,2.705191798941799e-09
63,258.7174295634921,260.1779861111111,4.348376984126984,1.6534391534391534e-10,0.5325482142857143,224.2541507936508,2.5163690476190475e-08,5.032738095238095e-08,1.1323660714285714e-07,1.006547619047619e-08,2.5163690476190476e-09
64,258.5608125,260.32584325396823,4.470764880952381,1.6534391534391534e-10,0.5917669642857143,223.98205952380954,2.6789021164021163e-08,5.3578042328042326e-08,1.205505952380952e-07,1.0715608465608465e-08,2.678902116402116e-09
65,258.65320337301586,260.1745436507936,4.1601478174603175,0.0,0.5893814484126985,226.4861369047619,3.135747354497354e-08,6.271494708994709e-08,1.4110863095238095e-07,1.2542989417989418e-08,3.1357473544973546e-09
66,258.75772718253967,260.2472222222222,4.108104166666666,0.0,0.6132223214285714,218.9442261904762,3.798115079365079e-08,7.596230158730158e-08,1.7091517857142855e-07,1.5192460317460318e-08,3.7981150793650794e-09
67,258.7908958333333,260.3123809523809,3.8557638888888883,0.0,0.6482222222222223,211.96963492063492,4.6314484126984125e-08,9.262896825396825e-08,2.0841517857142853e-07,1.852579365079365e-08,4.631448412698413e-09
68,258.61411904761906,260.58443452380953,3.9078541666666666,0.0,0.7131706349206349,204.65202777777776,5.485284391534392e-08,1.0970568783068784e-07,2.4683779761904763e-07,2.1941137566137567e-08,5.485284391534392e-09
69,258.5532738095238,260.89204365079365,3.702628968253968,1.6534391534391534e-10,0.754069742063492,205.00270833333337,6.302744708994708e-08,1.2605489417989417e-07,2.836235119047619e-07,2.5210978835978833e-08,6.302744708994708e-09
70,259.03285416666665,261.13610119047615,3.5777162698412703,1.6534391534391534e-10,0.7587810515873016,195.59853174603177,7.469411375661376e-08,1.4938822751322752e-07,3.361235119047619e-07,2.98776455026455e-08,7.469411375661375e-09
71,259.06992757936507,261.4194841269841,3.4508025793650794,1.6534391534391534e-10,0.7603445436507936,194.43178670634921,8.86739417989418e-08,1.773478835978836e-07,3.990327380952381e-07,3.546957671957672e-08,8.86739417989418e-09
72,259.64863095238087,261.78777777777776,3.373835317460317,1.6534391534391534e-10,0.7696120039682539,193.0693740079365,9.832175925925925e-08,1.966435185185185e-07,4.424479166666666e-07,3.9328703703703705e-08,9.832175925925926e-09
73,260.16100297619045,262.2340277777778,3.3255902777777777,1.6534391534391534e-10,0.796659623015873,193.78128373015872,1.0938326719576718e-07,2.1876653439153436e-07,4.922247023809523e-07,4.375330687830688e-08,1.093832671957672e-08
74,260.1479930555555,262.52494047619047,3.5388392857142854,1.6534391534391534e-10,0.7975644841269841,197.57086210317462,1.1826719576719575e-07,2.365343915343915e-07,5.322023809523809e-07,4.7306878306878305e-08,1.1826719576719576e-08
75,260.4802242063492,262.727123015873,3.7441964285714286,1.6534391534391534e-10,0.7346269841269841,212.7211101190476,1.260003306878307e-07,2.520006613756614e-07,5.670014880952381e-07,5.040013227513227e-08,1.2600033068783068e-08
76,261.1026984126984,262.8302281746032,3.93564880952381,0.0,0.7116429563492064,216.9701865079365,1.3362268518518517e-07,2.6724537037037034e-07,6.013020833333333e-07,5.344907407407407e-08,1.3362268518518518e-08
77,261.6092559523809,263.0149404761905,4.231396825396826,0.0,0.6647513888888889,236.56933234126987,1.3783234126984128e-07,2.7566468253968255e-07,6.202455357142857e-07,5.51329365079365e-08,1.3783234126984126e-08
78,262.326125,263.02220238095236,4.076326388888889,0.0,0.6384921626984127,235.07514285714282,1.36630291005291e-07,2.73260582010582e-07,6.148363095238095e-07,5.4652116402116394e-08,1.3663029100529098e-08
79,262.5884861111111,263.1840972222222,4.159049603174603,0.0,0.6279999007936509,230.70469444444444,1.420734126984127e-07,2.841468253968254e-07,6.393303571428572e-07,5.682936507936508e-08,1.420734126984127e-08
80,262.89449305555553,263.30296626984125,4.466439484126984,0.0,0.6072252976190476,233.38242261904765,1.4428736772486772e-07,2.8857473544973545e-07,6.492931547619047e-07,5.771494708994709e-08,1.4428736772486772e-08
81,263.1349900793651,263.5322708333333,4.653167658730159,0.0,0.5985825396825397,241.81227083333334,1.4739748677248676e-07,2.9479497354497353e-07,6.632886904761905e-07,5.895899470899472e-08,1.473974867724868e-08
82,262.57147023809523,263.5673700396825,4.57830753968254,0.0,0.624637003968254,242.60060615079365,1.5147652116402116e-07,3.0295304232804233e-07,6.816443452380951e-07,6.059060846560846e-08,1.5147652116402116e-08
83,261.96160714285713,263.4842847222222,4.669914682539683,0.0,0.5753289682539683,255.8824384920635,1.5778108465608466e-07,3.155621693121693e-07,7.100148809523808e-07,6.311243386243387e-08,1.5778108465608468e-08
84,262.10901686507935,263.2924593253968,4.508849206349206,0.0,0.5298415674603175,258.9225813492063,1.625380291005291e-07,3.250760582010582e-07,7.314211309523809e-07,6.501521164021164e-08,1.625380291005291e-08
85,262.86168452380946,263.4974275793651,5.033277777777777,0.0,0.4801965277777777,277.5167619047619,1.6396660052910054e-07,3.279332010582011e-07,7.378497023809523e-07,6.558664021164022e-08,1.6396660052910054e-08
86,263.6529861111111,263.6314216269841,5.154375,1.6534391534391534e-10,0.4239166666666666,291.29243055555554,1.5930224867724867e-07,3.1860449735449733e-07,7.16860119047619e-07,6.372089947089948e-08,1.593022486772487e-08
87,263.43914087301584,263.6743551587302,5.270032738095239,1.6534391534391534e-10,0.45011617063492054,281.33293749999996,1.5686011904761905e-07,3.137202380952381e-07,7.058705357142857e-07,6.274404761904762e-08,1.5686011904761905e-08
88,263.34012797619044,263.5977192460317,4.956348214285714,6.613756613756614e-10,0.4698145833333333,286.50677976190474,1.5276124338624338e-07,3.0552248677248676e-07,6.874255952380952e-07,6.110449735449735e-08,1.5276124338624337e-08
